t(ns)	MSD(A2)
0.000000	0.000000e+00
0.001000	5.516875e+00
0.002000	1.046245e+01
0.003000	1.529419e+01
0.004000	2.005048e+01
0.005000	2.474678e+01
0.006000	2.938931e+01
0.007000	3.398384e+01
0.008000	3.853408e+01
0.009000	4.304440e+01
0.010000	4.751757e+01
0.011000	5.195560e+01
0.012000	5.636049e+01
0.013000	6.073450e+01
0.014000	6.507854e+01
0.015000	6.939474e+01
0.016000	7.368418e+01
0.017000	7.794788e+01
0.018000	8.218707e+01
0.019000	8.640150e+01
0.020000	9.059320e+01
0.021000	9.476393e+01
0.022000	9.891391e+01
0.023000	1.030449e+02
0.024000	1.071574e+02
0.025000	1.112506e+02
0.026000	1.153260e+02
0.027000	1.193838e+02
0.028000	1.234239e+02
0.029000	1.274470e+02
0.030000	1.314535e+02
0.031000	1.354442e+02
0.032000	1.394201e+02
0.033000	1.433820e+02
0.034000	1.473299e+02
0.035000	1.512639e+02
0.036000	1.551839e+02
0.037000	1.590903e+02
0.038000	1.629839e+02
0.039000	1.668653e+02
0.040000	1.707339e+02
0.041000	1.745903e+02
0.042000	1.784343e+02
0.043000	1.822671e+02
0.044000	1.860886e+02
0.045000	1.898993e+02
0.046000	1.936993e+02
0.047000	1.974883e+02
0.048000	2.012661e+02
0.049000	2.050329e+02
0.050000	2.087890e+02
0.051000	2.125349e+02
0.052000	2.162717e+02
0.053000	2.199983e+02
0.054000	2.237152e+02
0.055000	2.274229e+02
0.056000	2.311213e+02
0.057000	2.348103e+02
0.058000	2.384905e+02
0.059000	2.421620e+02
0.060000	2.458254e+02
0.061000	2.494812e+02
0.062000	2.531286e+02
0.063000	2.567678e+02
0.064000	2.603989e+02
0.065000	2.640228e+02
0.066000	2.676390e+02
0.067000	2.712473e+02
0.068000	2.748481e+02
0.069000	2.784414e+02
0.070000	2.820271e+02
0.071000	2.856060e+02
0.072000	2.891781e+02
0.073000	2.927431e+02
0.074000	2.963004e+02
0.075000	2.998507e+02
0.076000	3.033947e+02
0.077000	3.069324e+02
0.078000	3.104643e+02
0.079000	3.139900e+02
0.080000	3.175101e+02
0.081000	3.210240e+02
0.082000	3.245320e+02
0.083000	3.280340e+02
0.084000	3.315303e+02
0.085000	3.350207e+02
0.086000	3.385054e+02
0.087000	3.419851e+02
0.088000	3.454589e+02
0.089000	3.489275e+02
0.090000	3.523904e+02
0.091000	3.558476e+02
0.092000	3.593000e+02
0.093000	3.627471e+02
0.094000	3.661886e+02
0.095000	3.696246e+02
0.096000	3.730558e+02
0.097000	3.764816e+02
0.098000	3.799031e+02
0.099000	3.833199e+02
0.100000	3.867322e+02
0.101000	3.901393e+02
0.102000	3.935422e+02
0.103000	3.969404e+02
0.104000	4.003344e+02
0.105000	4.037243e+02
0.106000	4.071097e+02
0.107000	4.104913e+02
0.108000	4.138691e+02
0.109000	4.172426e+02
0.110000	4.206118e+02
0.111000	4.239771e+02
0.112000	4.273377e+02
0.113000	4.306933e+02
0.114000	4.340447e+02
0.115000	4.373924e+02
0.116000	4.407371e+02
0.117000	4.440777e+02
0.118000	4.474140e+02
0.119000	4.507460e+02
0.120000	4.540745e+02
0.121000	4.573995e+02
0.122000	4.607204e+02
0.123000	4.640376e+02
0.124000	4.673510e+02
0.125000	4.706603e+02
0.126000	4.739661e+02
0.127000	4.772686e+02
0.128000	4.805668e+02
0.129000	4.838619e+02
0.130000	4.871535e+02
0.131000	4.904420e+02
0.132000	4.937278e+02
0.133000	4.970109e+02
0.134000	5.002910e+02
0.135000	5.035683e+02
0.136000	5.068424e+02
0.137000	5.101130e+02
0.138000	5.133806e+02
0.139000	5.166453e+02
0.140000	5.199074e+02
0.141000	5.231662e+02
0.142000	5.264212e+02
0.143000	5.296723e+02
0.144000	5.329202e+02
0.145000	5.361652e+02
0.146000	5.394072e+02
0.147000	5.426466e+02
0.148000	5.458833e+02
0.149000	5.491173e+02
0.150000	5.523485e+02
0.151000	5.555767e+02
0.152000	5.588028e+02
0.153000	5.620263e+02
0.154000	5.652474e+02
0.155000	5.684662e+02
0.156000	5.716820e+02
0.157000	5.748941e+02
0.158000	5.781038e+02
0.159000	5.813106e+02
0.160000	5.845153e+02
0.161000	5.877178e+02
0.162000	5.909171e+02
0.163000	5.941136e+02
0.164000	5.973072e+02
0.165000	6.004980e+02
0.166000	6.036866e+02
0.167000	6.068732e+02
0.168000	6.100569e+02
0.169000	6.132383e+02
0.170000	6.164174e+02
0.171000	6.195941e+02
0.172000	6.227686e+02
0.173000	6.259408e+02
0.174000	6.291108e+02
0.175000	6.322800e+02
0.176000	6.354469e+02
0.177000	6.386121e+02
0.178000	6.417752e+02
0.179000	6.449360e+02
0.180000	6.480949e+02
0.181000	6.512516e+02
0.182000	6.544064e+02
0.183000	6.575591e+02
0.184000	6.607093e+02
0.185000	6.638579e+02
0.186000	6.670048e+02
0.187000	6.701495e+02
0.188000	6.732929e+02
0.189000	6.764342e+02
0.190000	6.795740e+02
0.191000	6.827134e+02
0.192000	6.858508e+02
0.193000	6.889860e+02
0.194000	6.921190e+02
0.195000	6.952512e+02
0.196000	6.983822e+02
0.197000	7.015120e+02
0.198000	7.046397e+02
0.199000	7.077654e+02
0.200000	7.108888e+02
0.201000	7.140101e+02
0.202000	7.171296e+02
0.203000	7.202475e+02
0.204000	7.233632e+02
0.205000	7.264770e+02
0.206000	7.295895e+02
0.207000	7.327007e+02
0.208000	7.358105e+02
0.209000	7.389189e+02
0.210000	7.420254e+02
0.211000	7.451308e+02
0.212000	7.482344e+02
0.213000	7.513361e+02
0.214000	7.544364e+02
0.215000	7.575355e+02
0.216000	7.606328e+02
0.217000	7.637279e+02
0.218000	7.668220e+02
0.219000	7.699147e+02
0.220000	7.730058e+02
0.221000	7.760944e+02
0.222000	7.791813e+02
0.223000	7.822658e+02
0.224000	7.853484e+02
0.225000	7.884291e+02
0.226000	7.915079e+02
0.227000	7.945857e+02
0.228000	7.976624e+02
0.229000	8.007379e+02
0.230000	8.038125e+02
0.231000	8.068851e+02
0.232000	8.099571e+02
0.233000	8.130282e+02
0.234000	8.160978e+02
0.235000	8.191664e+02
0.236000	8.222335e+02
0.237000	8.252991e+02
0.238000	8.283636e+02
0.239000	8.314266e+02
0.240000	8.344888e+02
0.241000	8.375497e+02
0.242000	8.406093e+02
0.243000	8.436677e+02
0.244000	8.467245e+02
0.245000	8.497796e+02
0.246000	8.528331e+02
0.247000	8.558852e+02
0.248000	8.589355e+02
0.249000	8.619843e+02
0.250000	8.650314e+02
0.251000	8.680774e+02
0.252000	8.711221e+02
0.253000	8.741651e+02
0.254000	8.772074e+02
0.255000	8.802485e+02
0.256000	8.832888e+02
0.257000	8.863281e+02
0.258000	8.893662e+02
0.259000	8.924037e+02
0.260000	8.954397e+02
0.261000	8.984745e+02
0.262000	9.015081e+02
0.263000	9.045400e+02
0.264000	9.075714e+02
0.265000	9.106018e+02
0.266000	9.136307e+02
0.267000	9.166586e+02
0.268000	9.196854e+02
0.269000	9.227112e+02
0.270000	9.257364e+02
0.271000	9.287606e+02
0.272000	9.317830e+02
0.273000	9.348046e+02
0.274000	9.378253e+02
0.275000	9.408448e+02
0.276000	9.438639e+02
0.277000	9.468813e+02
0.278000	9.498983e+02
0.279000	9.529144e+02
0.280000	9.559300e+02
0.281000	9.589448e+02
0.282000	9.619582e+02
0.283000	9.649708e+02
0.284000	9.679821e+02
0.285000	9.709922e+02
0.286000	9.740013e+02
0.287000	9.770090e+02
0.288000	9.800161e+02
0.289000	9.830218e+02
0.290000	9.860270e+02
0.291000	9.890314e+02
0.292000	9.920338e+02
0.293000	9.950352e+02
0.294000	9.980367e+02
0.295000	1.001037e+03
0.296000	1.004037e+03
0.297000	1.007036e+03
0.298000	1.010033e+03
0.299000	1.013031e+03
0.300000	1.016027e+03
0.301000	1.019022e+03
0.302000	1.022017e+03
0.303000	1.025010e+03
0.304000	1.028003e+03
0.305000	1.030994e+03
0.306000	1.033984e+03
0.307000	1.036974e+03
0.308000	1.039962e+03
0.309000	1.042950e+03
0.310000	1.045937e+03
0.311000	1.048922e+03
0.312000	1.051907e+03
0.313000	1.054891e+03
0.314000	1.057874e+03
0.315000	1.060855e+03
0.316000	1.063836e+03
0.317000	1.066817e+03
0.318000	1.069797e+03
0.319000	1.072777e+03
0.320000	1.075756e+03
0.321000	1.078734e+03
0.322000	1.081712e+03
0.323000	1.084689e+03
0.324000	1.087666e+03
0.325000	1.090641e+03
0.326000	1.093615e+03
0.327000	1.096588e+03
0.328000	1.099561e+03
0.329000	1.102532e+03
0.330000	1.105503e+03
0.331000	1.108473e+03
0.332000	1.111443e+03
0.333000	1.114412e+03
0.334000	1.117381e+03
0.335000	1.120348e+03
0.336000	1.123314e+03
0.337000	1.126280e+03
0.338000	1.129245e+03
0.339000	1.132209e+03
0.340000	1.135172e+03
0.341000	1.138135e+03
0.342000	1.141097e+03
0.343000	1.144058e+03
0.344000	1.147017e+03
0.345000	1.149976e+03
0.346000	1.152933e+03
0.347000	1.155890e+03
0.348000	1.158847e+03
0.349000	1.161803e+03
0.350000	1.164759e+03
0.351000	1.167714e+03
0.352000	1.170668e+03
0.353000	1.173622e+03
0.354000	1.176576e+03
0.355000	1.179530e+03
0.356000	1.182484e+03
0.357000	1.185437e+03
0.358000	1.188391e+03
0.359000	1.191344e+03
0.360000	1.194296e+03
0.361000	1.197248e+03
0.362000	1.200199e+03
0.363000	1.203150e+03
0.364000	1.206099e+03
0.365000	1.209047e+03
0.366000	1.211996e+03
0.367000	1.214943e+03
0.368000	1.217890e+03
0.369000	1.220835e+03
0.370000	1.223780e+03
0.371000	1.226724e+03
0.372000	1.229668e+03
0.373000	1.232613e+03
0.374000	1.235557e+03
0.375000	1.238500e+03
0.376000	1.241443e+03
0.377000	1.244385e+03
0.378000	1.247326e+03
0.379000	1.250267e+03
0.380000	1.253206e+03
0.381000	1.256146e+03
0.382000	1.259085e+03
0.383000	1.262023e+03
0.384000	1.264960e+03
0.385000	1.267896e+03
0.386000	1.270833e+03
0.387000	1.273769e+03
0.388000	1.276706e+03
0.389000	1.279641e+03
0.390000	1.282577e+03
0.391000	1.285512e+03
0.392000	1.288447e+03
0.393000	1.291381e+03
0.394000	1.294315e+03
0.395000	1.297248e+03
0.396000	1.300180e+03
0.397000	1.303112e+03
0.398000	1.306043e+03
0.399000	1.308974e+03
0.400000	1.311905e+03
0.401000	1.314836e+03
0.402000	1.317766e+03
0.403000	1.320696e+03
0.404000	1.323626e+03
0.405000	1.326555e+03
0.406000	1.329484e+03
0.407000	1.332412e+03
0.408000	1.335340e+03
0.409000	1.338268e+03
0.410000	1.341196e+03
0.411000	1.344123e+03
0.412000	1.347051e+03
0.413000	1.349978e+03
0.414000	1.352905e+03
0.415000	1.355831e+03
0.416000	1.358758e+03
0.417000	1.361684e+03
0.418000	1.364610e+03
0.419000	1.367535e+03
0.420000	1.370460e+03
0.421000	1.373384e+03
0.422000	1.376308e+03
0.423000	1.379232e+03
0.424000	1.382156e+03
0.425000	1.385079e+03
0.426000	1.388002e+03
0.427000	1.390924e+03
0.428000	1.393846e+03
0.429000	1.396766e+03
0.430000	1.399687e+03
0.431000	1.402608e+03
0.432000	1.405528e+03
0.433000	1.408449e+03
0.434000	1.411369e+03
0.435000	1.414289e+03
0.436000	1.417208e+03
0.437000	1.420127e+03
0.438000	1.423045e+03
0.439000	1.425963e+03
0.440000	1.428881e+03
0.441000	1.431799e+03
0.442000	1.434716e+03
0.443000	1.437632e+03
0.444000	1.440548e+03
0.445000	1.443463e+03
0.446000	1.446378e+03
0.447000	1.449292e+03
0.448000	1.452204e+03
0.449000	1.455117e+03
0.450000	1.458030e+03
0.451000	1.460942e+03
0.452000	1.463854e+03
0.453000	1.466764e+03
0.454000	1.469674e+03
0.455000	1.472583e+03
0.456000	1.475492e+03
0.457000	1.478400e+03
0.458000	1.481308e+03
0.459000	1.484215e+03
0.460000	1.487121e+03
0.461000	1.490027e+03
0.462000	1.492933e+03
0.463000	1.495839e+03
0.464000	1.498744e+03
0.465000	1.501649e+03
0.466000	1.504553e+03
0.467000	1.507458e+03
0.468000	1.510361e+03
0.469000	1.513264e+03
0.470000	1.516166e+03
0.471000	1.519067e+03
0.472000	1.521967e+03
0.473000	1.524867e+03
0.474000	1.527766e+03
0.475000	1.530665e+03
0.476000	1.533564e+03
0.477000	1.536462e+03
0.478000	1.539359e+03
0.479000	1.542256e+03
0.480000	1.545153e+03
0.481000	1.548049e+03
0.482000	1.550945e+03
0.483000	1.553842e+03
0.484000	1.556738e+03
0.485000	1.559633e+03
0.486000	1.562527e+03
0.487000	1.565422e+03
0.488000	1.568316e+03
0.489000	1.571210e+03
0.490000	1.574104e+03
0.491000	1.576997e+03
0.492000	1.579890e+03
0.493000	1.582781e+03
0.494000	1.585672e+03
0.495000	1.588563e+03
0.496000	1.591454e+03
0.497000	1.594344e+03
0.498000	1.597234e+03
0.499000	1.600122e+03
0.500000	1.603011e+03
0.501000	1.605899e+03
0.502000	1.608787e+03
0.503000	1.611676e+03
0.504000	1.614564e+03
0.505000	1.617452e+03
0.506000	1.620339e+03
0.507000	1.623227e+03
0.508000	1.626114e+03
0.509000	1.629000e+03
0.510000	1.631886e+03
0.511000	1.634772e+03
0.512000	1.637657e+03
0.513000	1.640542e+03
0.514000	1.643427e+03
0.515000	1.646311e+03
0.516000	1.649194e+03
0.517000	1.652077e+03
0.518000	1.654959e+03
0.519000	1.657842e+03
0.520000	1.660723e+03
0.521000	1.663604e+03
0.522000	1.666485e+03
0.523000	1.669366e+03
0.524000	1.672246e+03
0.525000	1.675128e+03
0.526000	1.678008e+03
0.527000	1.680888e+03
0.528000	1.683768e+03
0.529000	1.686648e+03
0.530000	1.689527e+03
0.531000	1.692406e+03
0.532000	1.695286e+03
0.533000	1.698165e+03
0.534000	1.701044e+03
0.535000	1.703924e+03
0.536000	1.706804e+03
0.537000	1.709684e+03
0.538000	1.712565e+03
0.539000	1.715446e+03
0.540000	1.718327e+03
0.541000	1.721207e+03
0.542000	1.724086e+03
0.543000	1.726965e+03
0.544000	1.729844e+03
0.545000	1.732722e+03
0.546000	1.735600e+03
0.547000	1.738476e+03
0.548000	1.741352e+03
0.549000	1.744228e+03
0.550000	1.747103e+03
0.551000	1.749977e+03
0.552000	1.752852e+03
0.553000	1.755727e+03
0.554000	1.758602e+03
0.555000	1.761476e+03
0.556000	1.764350e+03
0.557000	1.767224e+03
0.558000	1.770098e+03
0.559000	1.772972e+03
0.560000	1.775845e+03
0.561000	1.778719e+03
0.562000	1.781593e+03
0.563000	1.784466e+03
0.564000	1.787339e+03
0.565000	1.790212e+03
0.566000	1.793085e+03
0.567000	1.795957e+03
0.568000	1.798829e+03
0.569000	1.801702e+03
0.570000	1.804575e+03
0.571000	1.807448e+03
0.572000	1.810321e+03
0.573000	1.813194e+03
0.574000	1.816065e+03
0.575000	1.818936e+03
0.576000	1.821806e+03
0.577000	1.824676e+03
0.578000	1.827546e+03
0.579000	1.830416e+03
0.580000	1.833285e+03
0.581000	1.836155e+03
0.582000	1.839025e+03
0.583000	1.841894e+03
0.584000	1.844763e+03
0.585000	1.847633e+03
0.586000	1.850502e+03
0.587000	1.853370e+03
0.588000	1.856238e+03
0.589000	1.859105e+03
0.590000	1.861972e+03
0.591000	1.864838e+03
0.592000	1.867705e+03
0.593000	1.870572e+03
0.594000	1.873439e+03
0.595000	1.876305e+03
0.596000	1.879171e+03
0.597000	1.882037e+03
0.598000	1.884903e+03
0.599000	1.887768e+03
0.600000	1.890634e+03
0.601000	1.893498e+03
0.602000	1.896363e+03
0.603000	1.899228e+03
0.604000	1.902093e+03
0.605000	1.904957e+03
0.606000	1.907822e+03
0.607000	1.910687e+03
0.608000	1.913551e+03
0.609000	1.916414e+03
0.610000	1.919277e+03
0.611000	1.922140e+03
0.612000	1.925002e+03
0.613000	1.927865e+03
0.614000	1.930728e+03
0.615000	1.933590e+03
0.616000	1.936452e+03
0.617000	1.939314e+03
0.618000	1.942176e+03
0.619000	1.945037e+03
0.620000	1.947897e+03
0.621000	1.950758e+03
0.622000	1.953619e+03
0.623000	1.956480e+03
0.624000	1.959341e+03
0.625000	1.962201e+03
0.626000	1.965062e+03
0.627000	1.967923e+03
0.628000	1.970784e+03
0.629000	1.973644e+03
0.630000	1.976504e+03
0.631000	1.979365e+03
0.632000	1.982225e+03
0.633000	1.985086e+03
0.634000	1.987947e+03
0.635000	1.990807e+03
0.636000	1.993668e+03
0.637000	1.996528e+03
0.638000	1.999387e+03
0.639000	2.002247e+03
0.640000	2.005106e+03
0.641000	2.007964e+03
0.642000	2.010821e+03
0.643000	2.013678e+03
0.644000	2.016535e+03
0.645000	2.019391e+03
0.646000	2.022247e+03
0.647000	2.025103e+03
0.648000	2.027959e+03
0.649000	2.030814e+03
0.650000	2.033670e+03
0.651000	2.036525e+03
0.652000	2.039380e+03
0.653000	2.042235e+03
0.654000	2.045090e+03
0.655000	2.047945e+03
0.656000	2.050799e+03
0.657000	2.053652e+03
0.658000	2.056505e+03
0.659000	2.059357e+03
0.660000	2.062210e+03
0.661000	2.065062e+03
0.662000	2.067913e+03
0.663000	2.070763e+03
0.664000	2.073613e+03
0.665000	2.076463e+03
0.666000	2.079313e+03
0.667000	2.082163e+03
0.668000	2.085012e+03
0.669000	2.087862e+03
0.670000	2.090713e+03
0.671000	2.093562e+03
0.672000	2.096412e+03
0.673000	2.099262e+03
0.674000	2.102112e+03
0.675000	2.104961e+03
0.676000	2.107810e+03
0.677000	2.110658e+03
0.678000	2.113506e+03
0.679000	2.116354e+03
0.680000	2.119202e+03
0.681000	2.122050e+03
0.682000	2.124897e+03
0.683000	2.127744e+03
0.684000	2.130590e+03
0.685000	2.133436e+03
0.686000	2.136281e+03
0.687000	2.139126e+03
0.688000	2.141970e+03
0.689000	2.144814e+03
0.690000	2.147658e+03
0.691000	2.150502e+03
0.692000	2.153346e+03
0.693000	2.156190e+03
0.694000	2.159034e+03
0.695000	2.161878e+03
0.696000	2.164722e+03
0.697000	2.167565e+03
0.698000	2.170409e+03
0.699000	2.173251e+03
0.700000	2.176094e+03
0.701000	2.178938e+03
0.702000	2.181781e+03
0.703000	2.184624e+03
0.704000	2.187466e+03
0.705000	2.190307e+03
0.706000	2.193149e+03
0.707000	2.195992e+03
0.708000	2.198833e+03
0.709000	2.201675e+03
0.710000	2.204516e+03
0.711000	2.207358e+03
0.712000	2.210198e+03
0.713000	2.213038e+03
0.714000	2.215878e+03
0.715000	2.218719e+03
0.716000	2.221558e+03
0.717000	2.224399e+03
0.718000	2.227239e+03
0.719000	2.230079e+03
0.720000	2.232919e+03
0.721000	2.235758e+03
0.722000	2.238597e+03
0.723000	2.241435e+03
0.724000	2.244273e+03
0.725000	2.247112e+03
0.726000	2.249949e+03
0.727000	2.252786e+03
0.728000	2.255624e+03
0.729000	2.258462e+03
0.730000	2.261300e+03
0.731000	2.264137e+03
0.732000	2.266974e+03
0.733000	2.269811e+03
0.734000	2.272648e+03
0.735000	2.275485e+03
0.736000	2.278323e+03
0.737000	2.281160e+03
0.738000	2.283998e+03
0.739000	2.286835e+03
0.740000	2.289672e+03
0.741000	2.292508e+03
0.742000	2.295344e+03
0.743000	2.298179e+03
0.744000	2.301015e+03
0.745000	2.303849e+03
0.746000	2.306683e+03
0.747000	2.309516e+03
0.748000	2.312350e+03
0.749000	2.315182e+03
0.750000	2.318015e+03
0.751000	2.320849e+03
0.752000	2.323682e+03
0.753000	2.326515e+03
0.754000	2.329348e+03
0.755000	2.332181e+03
0.756000	2.335013e+03
0.757000	2.337845e+03
0.758000	2.340676e+03
0.759000	2.343507e+03
0.760000	2.346338e+03
0.761000	2.349169e+03
0.762000	2.352000e+03
0.763000	2.354831e+03
0.764000	2.357662e+03
0.765000	2.360492e+03
0.766000	2.363322e+03
0.767000	2.366153e+03
0.768000	2.368984e+03
0.769000	2.371814e+03
0.770000	2.374643e+03
0.771000	2.377472e+03
0.772000	2.380300e+03
0.773000	2.383129e+03
0.774000	2.385958e+03
0.775000	2.388787e+03
0.776000	2.391616e+03
0.777000	2.394445e+03
0.778000	2.397273e+03
0.779000	2.400101e+03
0.780000	2.402930e+03
0.781000	2.405757e+03
0.782000	2.408585e+03
0.783000	2.411414e+03
0.784000	2.414243e+03
0.785000	2.417072e+03
0.786000	2.419901e+03
0.787000	2.422730e+03
0.788000	2.425559e+03
0.789000	2.428387e+03
0.790000	2.431215e+03
0.791000	2.434043e+03
0.792000	2.436871e+03
0.793000	2.439699e+03
0.794000	2.442527e+03
0.795000	2.445355e+03
0.796000	2.448183e+03
0.797000	2.451011e+03
0.798000	2.453840e+03
0.799000	2.456668e+03
0.800000	2.459495e+03
0.801000	2.462322e+03
0.802000	2.465149e+03
0.803000	2.467976e+03
0.804000	2.470803e+03
0.805000	2.473630e+03
0.806000	2.476457e+03
0.807000	2.479284e+03
0.808000	2.482112e+03
0.809000	2.484939e+03
0.810000	2.487767e+03
0.811000	2.490594e+03
0.812000	2.493422e+03
0.813000	2.496249e+03
0.814000	2.499075e+03
0.815000	2.501902e+03
0.816000	2.504729e+03
0.817000	2.507556e+03
0.818000	2.510383e+03
0.819000	2.513210e+03
0.820000	2.516037e+03
0.821000	2.518864e+03
0.822000	2.521691e+03
0.823000	2.524517e+03
0.824000	2.527344e+03
0.825000	2.530170e+03
0.826000	2.532995e+03
0.827000	2.535821e+03
0.828000	2.538646e+03
0.829000	2.541470e+03
0.830000	2.544294e+03
0.831000	2.547118e+03
0.832000	2.549943e+03
0.833000	2.552767e+03
0.834000	2.555591e+03
0.835000	2.558415e+03
0.836000	2.561239e+03
0.837000	2.564062e+03
0.838000	2.566885e+03
0.839000	2.569709e+03
0.840000	2.572533e+03
0.841000	2.575357e+03
0.842000	2.578180e+03
0.843000	2.581003e+03
0.844000	2.583826e+03
0.845000	2.586648e+03
0.846000	2.589471e+03
0.847000	2.592293e+03
0.848000	2.595115e+03
0.849000	2.597937e+03
0.850000	2.600759e+03
0.851000	2.603581e+03
0.852000	2.606403e+03
0.853000	2.609227e+03
0.854000	2.612051e+03
0.855000	2.614874e+03
0.856000	2.617697e+03
0.857000	2.620520e+03
0.858000	2.623342e+03
0.859000	2.626164e+03
0.860000	2.628985e+03
0.861000	2.631807e+03
0.862000	2.634629e+03
0.863000	2.637450e+03
0.864000	2.640271e+03
0.865000	2.643093e+03
0.866000	2.645914e+03
0.867000	2.648734e+03
0.868000	2.651555e+03
0.869000	2.654376e+03
0.870000	2.657197e+03
0.871000	2.660018e+03
0.872000	2.662840e+03
0.873000	2.665660e+03
0.874000	2.668481e+03
0.875000	2.671302e+03
0.876000	2.674122e+03
0.877000	2.676943e+03
0.878000	2.679763e+03
0.879000	2.682583e+03
0.880000	2.685403e+03
0.881000	2.688223e+03
0.882000	2.691043e+03
0.883000	2.693864e+03
0.884000	2.696684e+03
0.885000	2.699504e+03
0.886000	2.702325e+03
0.887000	2.705145e+03
0.888000	2.707964e+03
0.889000	2.710784e+03
0.890000	2.713604e+03
0.891000	2.716424e+03
0.892000	2.719243e+03
0.893000	2.722061e+03
0.894000	2.724880e+03
0.895000	2.727697e+03
0.896000	2.730514e+03
0.897000	2.733331e+03
0.898000	2.736148e+03
0.899000	2.738966e+03
0.900000	2.741783e+03
0.901000	2.744600e+03
0.902000	2.747418e+03
0.903000	2.750236e+03
0.904000	2.753054e+03
0.905000	2.755872e+03
0.906000	2.758689e+03
0.907000	2.761506e+03
