t(ns)	MSD(A2)
0.000000	0.000000e+00
0.001000	6.144935e+00
0.002000	1.186072e+01
0.003000	1.747960e+01
0.004000	2.303150e+01
0.005000	2.852526e+01
0.006000	3.396528e+01
0.007000	3.935582e+01
0.008000	4.470082e+01
0.009000	5.000308e+01
0.010000	5.526483e+01
0.011000	6.048774e+01
0.012000	6.567362e+01
0.013000	7.082493e+01
0.014000	7.594274e+01
0.015000	8.102863e+01
0.016000	8.608450e+01
0.017000	9.111061e+01
0.018000	9.610785e+01
0.019000	1.010777e+02
0.020000	1.060216e+02
0.021000	1.109400e+02
0.022000	1.158336e+02
0.023000	1.207036e+02
0.024000	1.255497e+02
0.025000	1.303740e+02
0.026000	1.351778e+02
0.027000	1.399616e+02
0.028000	1.447256e+02
0.029000	1.494696e+02
0.030000	1.541946e+02
0.031000	1.589017e+02
0.032000	1.635917e+02
0.033000	1.682635e+02
0.034000	1.729186e+02
0.035000	1.775571e+02
0.036000	1.821800e+02
0.037000	1.867873e+02
0.038000	1.913791e+02
0.039000	1.959564e+02
0.040000	2.005197e+02
0.041000	2.050690e+02
0.042000	2.096050e+02
0.043000	2.141275e+02
0.044000	2.186372e+02
0.045000	2.231342e+02
0.046000	2.276190e+02
0.047000	2.320922e+02
0.048000	2.365535e+02
0.049000	2.410045e+02
0.050000	2.454447e+02
0.051000	2.498743e+02
0.052000	2.542934e+02
0.053000	2.587019e+02
0.054000	2.631001e+02
0.055000	2.674884e+02
0.056000	2.718665e+02
0.057000	2.762352e+02
0.058000	2.805946e+02
0.059000	2.849450e+02
0.060000	2.892868e+02
0.061000	2.936200e+02
0.062000	2.979441e+02
0.063000	3.022597e+02
0.064000	3.065670e+02
0.065000	3.108663e+02
0.066000	3.151577e+02
0.067000	3.194415e+02
0.068000	3.237180e+02
0.069000	3.279873e+02
0.070000	3.322493e+02
0.071000	3.365041e+02
0.072000	3.407516e+02
0.073000	3.449929e+02
0.074000	3.492286e+02
0.075000	3.534584e+02
0.076000	3.576819e+02
0.077000	3.618986e+02
0.078000	3.661089e+02
0.079000	3.703134e+02
0.080000	3.745111e+02
0.081000	3.787026e+02
0.082000	3.828881e+02
0.083000	3.870676e+02
0.084000	3.912412e+02
0.085000	3.954093e+02
0.086000	3.995718e+02
0.087000	4.037286e+02
0.088000	4.078808e+02
0.089000	4.120281e+02
0.090000	4.161699e+02
0.091000	4.203070e+02
0.092000	4.244396e+02
0.093000	4.285678e+02
0.094000	4.326912e+02
0.095000	4.368102e+02
0.096000	4.409252e+02
0.097000	4.450365e+02
0.098000	4.491437e+02
0.099000	4.532463e+02
0.100000	4.573450e+02
0.101000	4.614390e+02
0.102000	4.655290e+02
0.103000	4.696144e+02
0.104000	4.736960e+02
0.105000	4.777730e+02
0.106000	4.818464e+02
0.107000	4.859163e+02
0.108000	4.899818e+02
0.109000	4.940436e+02
0.110000	4.981010e+02
0.111000	5.021552e+02
0.112000	5.062057e+02
0.113000	5.102526e+02
0.114000	5.142962e+02
0.115000	5.183359e+02
0.116000	5.223728e+02
0.117000	5.264061e+02
0.118000	5.304361e+02
0.119000	5.344636e+02
0.120000	5.384885e+02
0.121000	5.425099e+02
0.122000	5.465282e+02
0.123000	5.505439e+02
0.124000	5.545567e+02
0.125000	5.585668e+02
0.126000	5.625748e+02
0.127000	5.665787e+02
0.128000	5.705795e+02
0.129000	5.745785e+02
0.130000	5.785746e+02
0.131000	5.825681e+02
0.132000	5.865591e+02
0.133000	5.905476e+02
0.134000	5.945326e+02
0.135000	5.985153e+02
0.136000	6.024950e+02
0.137000	6.064729e+02
0.138000	6.104486e+02
0.139000	6.144218e+02
0.140000	6.183929e+02
0.141000	6.223609e+02
0.142000	6.263260e+02
0.143000	6.302895e+02
0.144000	6.342512e+02
0.145000	6.382104e+02
0.146000	6.421675e+02
0.147000	6.461226e+02
0.148000	6.500748e+02
0.149000	6.540254e+02
0.150000	6.579739e+02
0.151000	6.619207e+02
0.152000	6.658644e+02
0.153000	6.698068e+02
0.154000	6.737470e+02
0.155000	6.776848e+02
0.156000	6.816207e+02
0.157000	6.855544e+02
0.158000	6.894866e+02
0.159000	6.934175e+02
0.160000	6.973466e+02
0.161000	7.012734e+02
0.162000	7.051981e+02
0.163000	7.091212e+02
0.164000	7.130419e+02
0.165000	7.169607e+02
0.166000	7.208783e+02
0.167000	7.247940e+02
0.168000	7.287077e+02
0.169000	7.326194e+02
0.170000	7.365301e+02
0.171000	7.404393e+02
0.172000	7.443462e+02
0.173000	7.482519e+02
0.174000	7.521563e+02
0.175000	7.560589e+02
0.176000	7.599594e+02
0.177000	7.638586e+02
0.178000	7.677564e+02
0.179000	7.716530e+02
0.180000	7.755484e+02
0.181000	7.794415e+02
0.182000	7.833329e+02
0.183000	7.872236e+02
0.184000	7.911126e+02
0.185000	7.950001e+02
0.186000	7.988866e+02
0.187000	8.027708e+02
0.188000	8.066528e+02
0.189000	8.105336e+02
0.190000	8.144131e+02
0.191000	8.182914e+02
0.192000	8.221679e+02
0.193000	8.260434e+02
0.194000	8.299173e+02
0.195000	8.337900e+02
0.196000	8.376613e+02
0.197000	8.415314e+02
0.198000	8.454000e+02
0.199000	8.492670e+02
0.200000	8.531326e+02
0.201000	8.569979e+02
0.202000	8.608620e+02
0.203000	8.647254e+02
0.204000	8.685873e+02
0.205000	8.724482e+02
0.206000	8.763086e+02
0.207000	8.801679e+02
0.208000	8.840262e+02
0.209000	8.878837e+02
0.210000	8.917402e+02
0.211000	8.955958e+02
0.212000	8.994510e+02
0.213000	9.033051e+02
0.214000	9.071577e+02
0.215000	9.110102e+02
0.216000	9.148624e+02
0.217000	9.187133e+02
0.218000	9.225631e+02
0.219000	9.264124e+02
0.220000	9.302611e+02
0.221000	9.341088e+02
0.222000	9.379562e+02
0.223000	9.418024e+02
0.224000	9.456480e+02
0.225000	9.494927e+02
0.226000	9.533360e+02
0.227000	9.571788e+02
0.228000	9.610212e+02
0.229000	9.648627e+02
0.230000	9.687032e+02
0.231000	9.725425e+02
0.232000	9.763809e+02
0.233000	9.802183e+02
0.234000	9.840549e+02
0.235000	9.878903e+02
0.236000	9.917250e+02
0.237000	9.955586e+02
0.238000	9.993907e+02
0.239000	1.003223e+03
0.240000	1.007054e+03
0.241000	1.010884e+03
0.242000	1.014713e+03
0.243000	1.018540e+03
0.244000	1.022366e+03
0.245000	1.026192e+03
0.246000	1.030017e+03
0.247000	1.033840e+03
0.248000	1.037663e+03
0.249000	1.041486e+03
0.250000	1.045308e+03
0.251000	1.049130e+03
0.252000	1.052950e+03
0.253000	1.056768e+03
0.254000	1.060585e+03
0.255000	1.064402e+03
0.256000	1.068217e+03
0.257000	1.072033e+03
0.258000	1.075848e+03
0.259000	1.079662e+03
0.260000	1.083475e+03
0.261000	1.087287e+03
0.262000	1.091100e+03
0.263000	1.094911e+03
0.264000	1.098722e+03
0.265000	1.102533e+03
0.266000	1.106343e+03
0.267000	1.110152e+03
0.268000	1.113961e+03
0.269000	1.117770e+03
0.270000	1.121577e+03
0.271000	1.125383e+03
0.272000	1.129189e+03
0.273000	1.132994e+03
0.274000	1.136799e+03
0.275000	1.140604e+03
0.276000	1.144408e+03
0.277000	1.148211e+03
0.278000	1.152014e+03
0.279000	1.155817e+03
0.280000	1.159619e+03
0.281000	1.163420e+03
0.282000	1.167221e+03
0.283000	1.171019e+03
0.284000	1.174817e+03
0.285000	1.178614e+03
0.286000	1.182410e+03
0.287000	1.186205e+03
0.288000	1.190000e+03
0.289000	1.193794e+03
0.290000	1.197588e+03
0.291000	1.201381e+03
0.292000	1.205173e+03
0.293000	1.208965e+03
0.294000	1.212757e+03
0.295000	1.216548e+03
0.296000	1.220338e+03
0.297000	1.224126e+03
0.298000	1.227914e+03
0.299000	1.231703e+03
0.300000	1.235491e+03
0.301000	1.239278e+03
0.302000	1.243065e+03
0.303000	1.246852e+03
0.304000	1.250639e+03
0.305000	1.254425e+03
0.306000	1.258210e+03
0.307000	1.261994e+03
0.308000	1.265777e+03
0.309000	1.269560e+03
0.310000	1.273343e+03
0.311000	1.277126e+03
0.312000	1.280908e+03
0.313000	1.284689e+03
0.314000	1.288470e+03
0.315000	1.292251e+03
0.316000	1.296030e+03
0.317000	1.299809e+03
0.318000	1.303589e+03
0.319000	1.307368e+03
0.320000	1.311146e+03
0.321000	1.314925e+03
0.322000	1.318703e+03
0.323000	1.322481e+03
0.324000	1.326258e+03
0.325000	1.330035e+03
0.326000	1.333810e+03
0.327000	1.337585e+03
0.328000	1.341359e+03
0.329000	1.345132e+03
0.330000	1.348904e+03
0.331000	1.352677e+03
0.332000	1.356448e+03
0.333000	1.360220e+03
0.334000	1.363992e+03
0.335000	1.367763e+03
0.336000	1.371533e+03
0.337000	1.375303e+03
0.338000	1.379073e+03
0.339000	1.382843e+03
0.340000	1.386613e+03
0.341000	1.390383e+03
0.342000	1.394152e+03
0.343000	1.397921e+03
0.344000	1.401690e+03
0.345000	1.405459e+03
0.346000	1.409229e+03
0.347000	1.412998e+03
0.348000	1.416767e+03
0.349000	1.420534e+03
0.350000	1.424302e+03
0.351000	1.428070e+03
0.352000	1.431838e+03
0.353000	1.435605e+03
0.354000	1.439373e+03
0.355000	1.443140e+03
0.356000	1.446907e+03
0.357000	1.450674e+03
0.358000	1.454440e+03
0.359000	1.458205e+03
0.360000	1.461970e+03
0.361000	1.465734e+03
0.362000	1.469497e+03
0.363000	1.473260e+03
0.364000	1.477023e+03
0.365000	1.480786e+03
0.366000	1.484548e+03
0.367000	1.488310e+03
0.368000	1.492071e+03
0.369000	1.495833e+03
0.370000	1.499593e+03
0.371000	1.503355e+03
0.372000	1.507115e+03
0.373000	1.510875e+03
0.374000	1.514636e+03
0.375000	1.518396e+03
0.376000	1.522155e+03
0.377000	1.525914e+03
0.378000	1.529672e+03
0.379000	1.533430e+03
0.380000	1.537187e+03
0.381000	1.540945e+03
0.382000	1.544702e+03
0.383000	1.548459e+03
0.384000	1.552215e+03
0.385000	1.555973e+03
0.386000	1.559729e+03
0.387000	1.563484e+03
0.388000	1.567239e+03
0.389000	1.570994e+03
0.390000	1.574750e+03
0.391000	1.578506e+03
0.392000	1.582262e+03
0.393000	1.586018e+03
0.394000	1.589774e+03
0.395000	1.593530e+03
0.396000	1.597285e+03
0.397000	1.601041e+03
0.398000	1.604797e+03
0.399000	1.608552e+03
0.400000	1.612308e+03
0.401000	1.616063e+03
0.402000	1.619818e+03
0.403000	1.623573e+03
0.404000	1.627326e+03
0.405000	1.631080e+03
0.406000	1.634835e+03
0.407000	1.638589e+03
0.408000	1.642342e+03
0.409000	1.646096e+03
0.410000	1.649849e+03
0.411000	1.653601e+03
0.412000	1.657352e+03
0.413000	1.661103e+03
0.414000	1.664854e+03
0.415000	1.668605e+03
0.416000	1.672356e+03
0.417000	1.676107e+03
0.418000	1.679858e+03
0.419000	1.683609e+03
0.420000	1.687360e+03
0.421000	1.691111e+03
0.422000	1.694862e+03
0.423000	1.698613e+03
0.424000	1.702364e+03
0.425000	1.706115e+03
0.426000	1.709865e+03
0.427000	1.713615e+03
0.428000	1.717365e+03
0.429000	1.721115e+03
0.430000	1.724866e+03
0.431000	1.728615e+03
0.432000	1.732364e+03
0.433000	1.736112e+03
0.434000	1.739860e+03
0.435000	1.743608e+03
0.436000	1.747355e+03
0.437000	1.751102e+03
0.438000	1.754848e+03
0.439000	1.758594e+03
0.440000	1.762341e+03
0.441000	1.766087e+03
0.442000	1.769834e+03
0.443000	1.773581e+03
0.444000	1.777328e+03
0.445000	1.781075e+03
0.446000	1.784822e+03
0.447000	1.788568e+03
0.448000	1.792314e+03
0.449000	1.796059e+03
0.450000	1.799804e+03
0.451000	1.803548e+03
0.452000	1.807292e+03
0.453000	1.811035e+03
0.454000	1.814778e+03
0.455000	1.818519e+03
0.456000	1.822260e+03
0.457000	1.826001e+03
0.458000	1.829743e+03
0.459000	1.833485e+03
0.460000	1.837227e+03
0.461000	1.840969e+03
0.462000	1.844711e+03
0.463000	1.848453e+03
0.464000	1.852195e+03
0.465000	1.855937e+03
0.466000	1.859679e+03
0.467000	1.863420e+03
0.468000	1.867162e+03
0.469000	1.870904e+03
0.470000	1.874646e+03
0.471000	1.878387e+03
0.472000	1.882127e+03
0.473000	1.885866e+03
0.474000	1.889606e+03
0.475000	1.893346e+03
0.476000	1.897086e+03
0.477000	1.900825e+03
0.478000	1.904565e+03
0.479000	1.908304e+03
0.480000	1.912044e+03
0.481000	1.915783e+03
0.482000	1.919522e+03
0.483000	1.923261e+03
0.484000	1.927000e+03
0.485000	1.930739e+03
0.486000	1.934478e+03
0.487000	1.938218e+03
0.488000	1.941957e+03
0.489000	1.945696e+03
0.490000	1.949434e+03
0.491000	1.953172e+03
0.492000	1.956910e+03
0.493000	1.960648e+03
0.494000	1.964385e+03
0.495000	1.968123e+03
0.496000	1.971861e+03
0.497000	1.975600e+03
0.498000	1.979338e+03
0.499000	1.983076e+03
0.500000	1.986813e+03
0.501000	1.990551e+03
0.502000	1.994289e+03
0.503000	1.998028e+03
0.504000	2.001765e+03
0.505000	2.005502e+03
0.506000	2.009238e+03
0.507000	2.012973e+03
0.508000	2.016709e+03
0.509000	2.020443e+03
0.510000	2.024178e+03
0.511000	2.027913e+03
0.512000	2.031647e+03
0.513000	2.035382e+03
0.514000	2.039116e+03
0.515000	2.042850e+03
0.516000	2.046584e+03
0.517000	2.050318e+03
0.518000	2.054051e+03
0.519000	2.057782e+03
0.520000	2.061514e+03
0.521000	2.065245e+03
0.522000	2.068977e+03
0.523000	2.072708e+03
0.524000	2.076440e+03
0.525000	2.080171e+03
0.526000	2.083902e+03
0.527000	2.087634e+03
0.528000	2.091366e+03
0.529000	2.095098e+03
0.530000	2.098829e+03
0.531000	2.102560e+03
0.532000	2.106290e+03
0.533000	2.110021e+03
0.534000	2.113751e+03
0.535000	2.117481e+03
0.536000	2.121210e+03
0.537000	2.124938e+03
0.538000	2.128667e+03
0.539000	2.132395e+03
0.540000	2.136124e+03
0.541000	2.139852e+03
0.542000	2.143581e+03
0.543000	2.147310e+03
0.544000	2.151038e+03
0.545000	2.154765e+03
0.546000	2.158493e+03
0.547000	2.162220e+03
0.548000	2.165947e+03
0.549000	2.169674e+03
0.550000	2.173402e+03
0.551000	2.177130e+03
0.552000	2.180859e+03
0.553000	2.184587e+03
0.554000	2.188315e+03
0.555000	2.192043e+03
0.556000	2.195770e+03
0.557000	2.199497e+03
0.558000	2.203224e+03
0.559000	2.206951e+03
0.560000	2.210678e+03
0.561000	2.214406e+03
0.562000	2.218134e+03
0.563000	2.221861e+03
0.564000	2.225589e+03
0.565000	2.229316e+03
0.566000	2.233043e+03
0.567000	2.236770e+03
0.568000	2.240496e+03
0.569000	2.244222e+03
0.570000	2.247949e+03
0.571000	2.251676e+03
0.572000	2.255403e+03
0.573000	2.259130e+03
0.574000	2.262856e+03
0.575000	2.266583e+03
0.576000	2.270310e+03
0.577000	2.274037e+03
0.578000	2.277764e+03
0.579000	2.281491e+03
0.580000	2.285219e+03
0.581000	2.288946e+03
0.582000	2.292673e+03
0.583000	2.296400e+03
0.584000	2.300126e+03
0.585000	2.303853e+03
0.586000	2.307579e+03
0.587000	2.311306e+03
0.588000	2.315033e+03
0.589000	2.318759e+03
0.590000	2.322486e+03
0.591000	2.326212e+03
0.592000	2.329938e+03
0.593000	2.333664e+03
0.594000	2.337392e+03
0.595000	2.341118e+03
0.596000	2.344844e+03
0.597000	2.348570e+03
0.598000	2.352296e+03
0.599000	2.356023e+03
0.600000	2.359750e+03
0.601000	2.363476e+03
0.602000	2.367203e+03
0.603000	2.370929e+03
0.604000	2.374656e+03
0.605000	2.378382e+03
0.606000	2.382108e+03
0.607000	2.385834e+03
0.608000	2.389560e+03
0.609000	2.393284e+03
0.610000	2.397009e+03
0.611000	2.400733e+03
0.612000	2.404458e+03
0.613000	2.408183e+03
0.614000	2.411907e+03
0.615000	2.415632e+03
0.616000	2.419356e+03
0.617000	2.423080e+03
0.618000	2.426803e+03
0.619000	2.430527e+03
0.620000	2.434251e+03
0.621000	2.437975e+03
0.622000	2.441699e+03
0.623000	2.445422e+03
0.624000	2.449145e+03
0.625000	2.452867e+03
0.626000	2.456589e+03
0.627000	2.460311e+03
0.628000	2.464033e+03
0.629000	2.467754e+03
0.630000	2.471476e+03
0.631000	2.475197e+03
0.632000	2.478919e+03
0.633000	2.482640e+03
0.634000	2.486362e+03
0.635000	2.490082e+03
0.636000	2.493803e+03
0.637000	2.497525e+03
0.638000	2.501248e+03
0.639000	2.504971e+03
0.640000	2.508693e+03
0.641000	2.512416e+03
0.642000	2.516139e+03
0.643000	2.519861e+03
0.644000	2.523582e+03
0.645000	2.527303e+03
0.646000	2.531025e+03
0.647000	2.534746e+03
0.648000	2.538468e+03
0.649000	2.542189e+03
0.650000	2.545911e+03
0.651000	2.549633e+03
0.652000	2.553354e+03
0.653000	2.557076e+03
0.654000	2.560798e+03
0.655000	2.564520e+03
0.656000	2.568241e+03
0.657000	2.571963e+03
0.658000	2.575685e+03
0.659000	2.579406e+03
0.660000	2.583126e+03
0.661000	2.586848e+03
0.662000	2.590569e+03
0.663000	2.594289e+03
0.664000	2.598010e+03
0.665000	2.601730e+03
0.666000	2.605449e+03
0.667000	2.609169e+03
0.668000	2.612888e+03
0.669000	2.616607e+03
0.670000	2.620326e+03
0.671000	2.624044e+03
0.672000	2.627762e+03
0.673000	2.631479e+03
0.674000	2.635197e+03
0.675000	2.638913e+03
0.676000	2.642630e+03
0.677000	2.646346e+03
0.678000	2.650063e+03
0.679000	2.653779e+03
0.680000	2.657495e+03
0.681000	2.661212e+03
0.682000	2.664929e+03
0.683000	2.668645e+03
0.684000	2.672361e+03
0.685000	2.676078e+03
0.686000	2.679793e+03
0.687000	2.683509e+03
0.688000	2.687225e+03
0.689000	2.690941e+03
0.690000	2.694657e+03
0.691000	2.698373e+03
0.692000	2.702087e+03
0.693000	2.705802e+03
0.694000	2.709516e+03
0.695000	2.713230e+03
0.696000	2.716943e+03
0.697000	2.720656e+03
0.698000	2.724369e+03
0.699000	2.728082e+03
0.700000	2.731795e+03
0.701000	2.735508e+03
0.702000	2.739220e+03
0.703000	2.742933e+03
0.704000	2.746646e+03
0.705000	2.750358e+03
0.706000	2.754071e+03
0.707000	2.757784e+03
0.708000	2.761498e+03
0.709000	2.765211e+03
0.710000	2.768924e+03
0.711000	2.772637e+03
0.712000	2.776350e+03
0.713000	2.780062e+03
0.714000	2.783775e+03
0.715000	2.787488e+03
0.716000	2.791201e+03
0.717000	2.794914e+03
0.718000	2.798627e+03
0.719000	2.802340e+03
0.720000	2.806053e+03
0.721000	2.809766e+03
0.722000	2.813479e+03
0.723000	2.817192e+03
0.724000	2.820904e+03
0.725000	2.824617e+03
0.726000	2.828329e+03
0.727000	2.832043e+03
0.728000	2.835757e+03
0.729000	2.839471e+03
0.730000	2.843185e+03
0.731000	2.846900e+03
0.732000	2.850614e+03
0.733000	2.854328e+03
0.734000	2.858042e+03
0.735000	2.861757e+03
0.736000	2.865471e+03
0.737000	2.869184e+03
0.738000	2.872898e+03
0.739000	2.876614e+03
0.740000	2.880329e+03
0.741000	2.884043e+03
0.742000	2.887758e+03
0.743000	2.891473e+03
0.744000	2.895187e+03
0.745000	2.898901e+03
0.746000	2.902615e+03
0.747000	2.906328e+03
0.748000	2.910041e+03
0.749000	2.913755e+03
0.750000	2.917469e+03
0.751000	2.921183e+03
0.752000	2.924896e+03
0.753000	2.928610e+03
0.754000	2.932324e+03
0.755000	2.936037e+03
0.756000	2.939750e+03
0.757000	2.943463e+03
0.758000	2.947175e+03
0.759000	2.950887e+03
0.760000	2.954599e+03
0.761000	2.958311e+03
0.762000	2.962024e+03
0.763000	2.965736e+03
0.764000	2.969448e+03
0.765000	2.973159e+03
0.766000	2.976870e+03
0.767000	2.980580e+03
0.768000	2.984290e+03
0.769000	2.987999e+03
0.770000	2.991708e+03
0.771000	2.995418e+03
0.772000	2.999127e+03
0.773000	3.002836e+03
0.774000	3.006547e+03
0.775000	3.010259e+03
0.776000	3.013970e+03
0.777000	3.017681e+03
0.778000	3.021391e+03
0.779000	3.025101e+03
0.780000	3.028811e+03
0.781000	3.032521e+03
0.782000	3.036230e+03
0.783000	3.039939e+03
0.784000	3.043648e+03
0.785000	3.047357e+03
0.786000	3.051065e+03
0.787000	3.054774e+03
0.788000	3.058483e+03
0.789000	3.062191e+03
0.790000	3.065899e+03
0.791000	3.069607e+03
0.792000	3.073316e+03
0.793000	3.077025e+03
0.794000	3.080734e+03
0.795000	3.084444e+03
0.796000	3.088154e+03
0.797000	3.091863e+03
0.798000	3.095572e+03
0.799000	3.099282e+03
0.800000	3.102992e+03
0.801000	3.106702e+03
0.802000	3.110411e+03
0.803000	3.114121e+03
0.804000	3.117830e+03
0.805000	3.121540e+03
0.806000	3.125250e+03
0.807000	3.128960e+03
0.808000	3.132669e+03
0.809000	3.136379e+03
0.810000	3.140089e+03
0.811000	3.143799e+03
0.812000	3.147508e+03
0.813000	3.151218e+03
0.814000	3.154928e+03
0.815000	3.158637e+03
0.816000	3.162346e+03
0.817000	3.166056e+03
0.818000	3.169765e+03
0.819000	3.173476e+03
0.820000	3.177185e+03
0.821000	3.180894e+03
0.822000	3.184604e+03
0.823000	3.188313e+03
0.824000	3.192022e+03
0.825000	3.195731e+03
0.826000	3.199440e+03
0.827000	3.203149e+03
0.828000	3.206859e+03
0.829000	3.210569e+03
0.830000	3.214279e+03
0.831000	3.217988e+03
0.832000	3.221698e+03
0.833000	3.225407e+03
0.834000	3.229116e+03
0.835000	3.232825e+03
0.836000	3.236533e+03
0.837000	3.240242e+03
0.838000	3.243951e+03
0.839000	3.247660e+03
0.840000	3.251369e+03
0.841000	3.255077e+03
0.842000	3.258786e+03
0.843000	3.262496e+03
0.844000	3.266205e+03
0.845000	3.269913e+03
0.846000	3.273622e+03
0.847000	3.277330e+03
0.848000	3.281039e+03
0.849000	3.284747e+03
0.850000	3.288455e+03
0.851000	3.292163e+03
0.852000	3.295872e+03
0.853000	3.299580e+03
0.854000	3.303287e+03
0.855000	3.306995e+03
0.856000	3.310703e+03
0.857000	3.314410e+03
0.858000	3.318118e+03
0.859000	3.321826e+03
0.860000	3.325533e+03
0.861000	3.329242e+03
0.862000	3.332950e+03
0.863000	3.336658e+03
0.864000	3.340367e+03
0.865000	3.344075e+03
0.866000	3.347782e+03
0.867000	3.351489e+03
0.868000	3.355196e+03
0.869000	3.358903e+03
0.870000	3.362610e+03
0.871000	3.366317e+03
0.872000	3.370025e+03
0.873000	3.373732e+03
0.874000	3.377440e+03
0.875000	3.381147e+03
0.876000	3.384854e+03
0.877000	3.388560e+03
0.878000	3.392268e+03
0.879000	3.395975e+03
0.880000	3.399683e+03
0.881000	3.403392e+03
0.882000	3.407100e+03
0.883000	3.410808e+03
0.884000	3.414516e+03
0.885000	3.418224e+03
0.886000	3.421932e+03
0.887000	3.425640e+03
0.888000	3.429347e+03
0.889000	3.433054e+03
0.890000	3.436760e+03
0.891000	3.440467e+03
0.892000	3.444174e+03
0.893000	3.447881e+03
0.894000	3.451589e+03
0.895000	3.455297e+03
0.896000	3.459006e+03
0.897000	3.462715e+03
0.898000	3.466423e+03
0.899000	3.470132e+03
0.900000	3.473841e+03
0.901000	3.477550e+03
0.902000	3.481259e+03
0.903000	3.484967e+03
0.904000	3.488676e+03
0.905000	3.492384e+03
0.906000	3.496092e+03
0.907000	3.499798e+03
